theta I
-0.3000      1836
-0.2900      2122
-0.2800      2236
-0.2700      2418
-0.2600      2579
-0.2500      2644
-0.2400      3160
-0.2300      3646
-0.2200      4368
-0.2100      4898
-0.2000      5479
-0.1900      6142
-0.1800      6781
-0.1700      7939
-0.1600      9296
-0.1500     11164
-0.1400     13036
-0.1300     15916
-0.1200     20495
-0.1100     26592
-0.1000     34614
-0.0900     45569
-0.0800     60869
-0.0700     92128
-0.0600    141444
-0.0500    198646
-0.0400    249182
-0.0300    318370
-0.0200    392259
-0.0100    456486
 0.0000    506208
 0.0100    505924
 0.0200    445386
 0.0300    351661
 0.0400    252666
 0.0500    175980
 0.0600    124592
 0.0700     98877
 0.0800     69837
 0.0900     52169
 0.1000     36003
 0.1100     27611
 0.1200     22698
 0.1300     19287
 0.1400     17893
 0.1500     13613
 0.1600     11112
 0.1700      8819
 0.1800      6282
 0.1900      5170
 0.2000      4288
 0.2100      3740
 0.2200      3374
 0.2300      2970
 0.2400      2524
 0.2500      2225
 0.2600      1970
 0.2700      1773
 0.2800      1670
 0.2900      1542
 0.3000      1348